Wavelength  Flux
#[Angstrom]  [Flux per Angstrom]
3537.47         18.34936
3538.47         21.29578
3539.47         23.99459
3540.47         24.33915
3541.47         27.18333
3542.47         35.83587
3543.47         47.85939
3544.47         58.39506
3545.47         59.30299
3546.47         48.64113
3547.47         34.86918
3548.47         24.72326
3549.47         19.61395
3550.47         20.47488
3551.47         22.80189
3552.47         22.25937
3553.47         21.15413
3554.47         22.25961
3555.47         22.14246
3556.47         15.30798
3557.47         9.711481
3558.47         16.52986
3559.47         28.66411
3560.47         35.87268
3561.47         38.79131
3562.47         37.96436
3563.47          35.2647
3564.47         32.40037
3565.47         26.88343
3566.47         18.23883
3567.47         9.217154
3568.47         4.243761
3569.47         8.396659
3570.47         20.70019
3571.47         33.58061
3572.47         41.93848
3573.47         41.82796
3574.47         38.79906
3575.47         40.53932
3576.47         43.62491
3577.47         42.97818
3578.47         39.28339
3579.47         36.25058
3580.47         34.34591
3581.47         29.68944
3582.47         22.37353
3583.47         18.81309
3584.47         20.26507
3585.47         22.13851
3586.47         24.47768
3587.47         26.63404
3588.47          30.7173
3589.47         40.10839
3590.47         46.70049
3591.47         46.62239
3592.47         45.42445
3593.47         41.84894
3594.47         32.32448
3595.47         25.99642
3596.47         29.47484
3597.47         32.78941
3598.47         31.02904
3599.47         29.58558
3600.47         34.47729
3601.47         46.32745
3602.47         52.18895
3603.47         45.82732
3604.47         38.66266
3605.47         39.22284
3606.47         39.28496
3607.47         30.69198
3608.47         18.46171
3609.47         11.05922
3610.47         13.75808
3611.47         24.93513
3612.47         34.57826
3613.47         37.16397
3614.47         36.38105
3615.47           30.132
3616.47         23.31885
3617.47         26.96208
3618.47         31.55712
3619.47         30.85115
3620.47         31.25708
3621.47          31.2707
3622.47         29.81052
3623.47          29.9368
3624.47         28.77507
3625.47          24.6891
3626.47         23.54229
3627.47         25.65375
3628.47         25.39956
3629.47         24.67371
3630.47         28.85635
3631.47         38.19915
3632.47         47.03198
3633.47         46.11176
3634.47         37.58032
3635.47         32.06811
3636.47         28.96876
3637.47         24.83588
3638.47         26.17768
3639.47         33.83974
3640.47         39.08835
3641.47         36.39483
3642.47         28.37012
3643.47         23.42587
3644.47           21.603
3645.47         20.37436
3646.47         25.04851
3647.47         28.92157
3648.47         21.60781
3649.47         13.67378
3650.47          16.6918
3651.47         23.30538
3652.47         24.95782
3653.47         25.47384
3654.47         29.86777
3655.47         39.76862
3656.47           50.147
3657.47         53.24321
3658.47         48.35006
3659.47         39.85866
3660.47         33.24376
3661.47          34.1467
3662.47          43.0573
3663.47          48.6924
3664.47         42.79269
3665.47         32.53047
3666.47         26.21383
3667.47         26.35555
3668.47         30.68702
3669.47         29.81897
3670.47          24.7313
3671.47         25.18379
3672.47         27.93529
3673.47         26.58235
3674.47         24.11447
3675.47         24.65068
3676.47         27.44742
3677.47         29.80388
3678.47         30.54494
3679.47         28.04239
3680.47         20.85598
3681.47         11.06454
3682.47          6.63919
3683.47         12.70987
3684.47         22.20554
3685.47         26.54103
3686.47         25.91696
3687.47         25.29654
3688.47         28.17851
3689.47          33.9071
3690.47         38.36774
3691.47          34.1167
3692.47         26.12702
3693.47         27.43253
3694.47         34.67678
3695.47         36.54803
3696.47         33.35253
3697.47         33.41342
3698.47         35.66747
3699.47         35.88954
3700.47         35.93116
3701.47           34.177
3702.47         28.31282
3703.47         21.77994
3704.47         19.25573
3705.47         19.97681
3706.47         20.17453
3707.47         17.82767
3708.47         16.74105
3709.47         20.90952
3710.47         28.83424
3711.47         33.02613
3712.47         30.74945
3713.47         28.87915
3714.47         28.30604
3715.47         29.84506
3716.47          33.0043
3717.47         30.58848
3718.47          26.9537
3719.47         30.11392
3720.47         37.18911
3721.47         44.09863
3722.47         48.21205
3723.47          50.9585
3724.47         54.84529
3725.47         58.88936
3726.47         62.23722
3727.47         61.96688
3728.47         57.34594
3729.47          50.1487
3730.47         40.57688
3731.47         33.37954
3732.47         30.56241
3733.47         27.86548
3734.47         27.08266
3735.47         29.23789
3736.47         29.25422
3737.47         27.11332
3738.47          28.3805
3739.47          34.9409
3740.47         40.99683
3741.47         37.84031
3742.47         29.27512
3743.47         25.16674
3744.47         23.68768
3745.47         22.57643
3746.47         22.26598
3747.47         21.27819
3748.47         22.97055
3749.47          28.1368
3750.47         31.75307
3751.47         31.48552
3752.47         29.32085
3753.47         26.54014
3754.47         23.85085
3755.47         24.91216
3756.47         30.08008
3757.47         35.35396
3758.47         39.42591
3759.47         44.57587
3760.47         48.57932
3761.47         46.72746
3762.47         40.04133
3763.47         33.29385
3764.47          30.2986
3765.47         31.09643
3766.47         33.03921
3767.47         31.98039
3768.47         25.15869
3769.47         22.08342
3770.47         29.62194
3771.47         36.96368
3772.47          40.4825
3773.47         44.42555
3774.47         44.37378
3775.47         39.27303
3776.47         36.66045
3777.47         38.11262
3778.47         38.63705
3779.47         42.38585
3780.47         51.57662
3781.47         55.94865
3782.47         51.90594
3783.47         46.04045
3784.47         42.40099
3785.47         41.58754
3786.47          41.7964
3787.47         40.44424
3788.47         38.35178
3789.47         36.90765
3790.47         36.30536
3791.47         37.37564
3792.47         37.54362
3793.47         34.69525
3794.47         32.58579
3795.47         31.60601
3796.47         28.63222
3797.47         24.65918
3798.47         23.21708
3799.47         25.35029
3800.47         28.49385
3801.47         30.13505
3802.47         30.06484
3803.47         28.25083
3804.47         27.80346
3805.47         32.46885
3806.47         38.27264
3807.47         41.06488
3808.47         43.15332
3809.47         48.19033
3810.47         56.54057
3811.47         60.58588
3812.47          55.1325
3813.47         46.87902
3814.47         41.90312
3815.47         39.34682
3816.47         40.23275
3817.47          44.9786
3818.47         47.20272
3819.47         43.74187
3820.47         40.72944
3821.47          42.0544
3822.47         43.70805
3823.47         42.44774
3824.47         39.27746
3825.47         36.47783
3826.47         33.98227
3827.47         31.69652
3828.47         33.10032
3829.47         37.81234
3830.47         39.80587
3831.47         37.06689
3832.47         30.86663
3833.47         25.85425
3834.47         25.94658
3835.47         26.80232
3836.47         27.07827
3837.47         30.30488
3838.47         35.48301
3839.47         42.45337
3840.47         50.54902
3841.47         54.41463
3842.47         53.34188
3843.47         53.59393
3844.47         57.68334
3845.47         60.32562
3846.47         57.77307
3847.47         54.00958
3848.47         53.10781
3849.47         54.61681
3850.47         54.97649
3851.47         50.65305
3852.47         47.46475
3853.47         53.70968
3854.47         61.18872
3855.47         60.48222
3856.47         58.81394
3857.47         60.41728
3858.47         60.66083
3859.47         58.00409
3860.47         54.72247
3861.47         53.05428
3862.47         52.76736
3863.47         54.38588
3864.47         57.53582
3865.47         57.28116
3866.47         49.87615
3867.47         40.51764
3868.47         38.80965
3869.47         43.93148
3870.47         46.25641
3871.47         43.74577
3872.47         40.87044
3873.47         39.00351
3874.47         39.49557
3875.47         43.89665
3876.47         48.35863
3877.47         46.26559
3878.47         38.87837
3879.47         34.83434
3880.47         36.34142
3881.47         36.50322
3882.47         33.38463
3883.47         30.32633
3884.47         29.08521
3885.47         31.51544
3886.47         34.43899
3887.47         32.16976
3888.47          28.4672
3889.47         28.64399
3890.47         30.48249
3891.47         31.90385
3892.47         35.44584
3893.47         40.67013
3894.47         44.74342
3895.47         46.17224
3896.47         46.22399
3897.47          48.0773
3898.47          49.1734
3899.47         48.40182
3900.47           51.189
3901.47         57.01533
3902.47         57.30939
3903.47         50.94203
3904.47         46.82911
3905.47          50.1054
3906.47         55.08577
3907.47         57.73395
3908.47          61.3529
3909.47         61.98486
3910.47         58.45753
3911.47         63.18243
3912.47         75.72665
3913.47         78.89495
3914.47         69.39639
3915.47         61.80183
3916.47         64.69857
3917.47         67.70988
3918.47         60.42793
3919.47         50.03032
3920.47         44.32211
3921.47         42.93075
3922.47         46.28193
3923.47         52.52843
3924.47         57.36533
3925.47         58.52843
3926.47         54.64363
3927.47         48.15618
3928.47         43.67108
3929.47         41.99713
3930.47         40.58575
3931.47         36.71859
3932.47         32.43359
3933.47         32.25835
3934.47         38.36025
3935.47         48.29919
3936.47         55.71995
3937.47         56.22696
3938.47         52.24208
3939.47         50.20377
3940.47         51.73336
3941.47         55.88213
3942.47         61.94838
3943.47         64.43934
3944.47         61.00771
3945.47         57.82939
3946.47         60.44045
3947.47         66.00352
3948.47         69.34587
3949.47          69.4213
3950.47          67.8271
3951.47         66.12481
3952.47         62.96847
3953.47         57.19307
3954.47          52.9091
3955.47         51.79586
3956.47         50.65281
3957.47         50.53688
3958.47         53.36272
3959.47         54.67543
3960.47         48.99994
3961.47         39.89011
3962.47          32.4622
3963.47         25.56733
3964.47         18.04853
3965.47         10.48824
3966.47         6.318705
3967.47         8.945014
3968.47         15.46829
3969.47         21.33164
3970.47         28.11677
3971.47         37.72423
3972.47         47.41397
3973.47         50.59009
3974.47         47.72909
3975.47         46.30116
3976.47         47.95565
3977.47         51.66697
3978.47         55.06387
3979.47         56.16705
3980.47         57.62257
3981.47         60.79009
3982.47         62.68696
3983.47         61.65973
3984.47         60.62104
3985.47         61.29534
3986.47         61.23067
3987.47         60.16219
3988.47         61.02404
3989.47         61.99864
3990.47         61.38062
3991.47         63.85002
3992.47           70.858
3993.47         74.07316
3994.47         69.60698
3995.47         63.74546
3996.47          59.9625
3997.47         57.97346
3998.47         57.63372
3999.47         56.59447
4000.47         58.57392
4001.47         67.70483
4002.47         74.37975
4003.47         71.84602
4004.47         65.88832
4005.47         61.26097
4006.47         58.64449
4007.47         58.43855
4008.47         60.41183
4009.47         62.26971
4010.47         61.86201
4011.47         58.01962
4012.47         53.59324
4013.47         57.08781
4014.47         67.90451
4015.47           71.914
4016.47         67.59184
4017.47         70.03433
4018.47          77.3639
4019.47         77.67224
4020.47         75.77453
4021.47         78.97688
4022.47         82.86755
4023.47         81.85684
4024.47         75.99548
4025.47         69.99538
4026.47         69.48103
4027.47         72.92715
4028.47         72.02724
4029.47         66.92475
4030.47         62.91142
4031.47         59.78793
4032.47         58.68695
4033.47         64.83119
4034.47         72.55808
4035.47         71.45496
4036.47          66.4032
4037.47         64.91815
4038.47         66.60283
4039.47         70.35571
4040.47         74.24065
4041.47         74.45202
4042.47         69.72874
4043.47         63.66331
4044.47         61.32979
4045.47         61.07161
4046.47         59.30575
4047.47         60.26591
4048.47         67.64229
4049.47         74.50729
4050.47         74.30429
4051.47         71.43029
4052.47         71.68222
4053.47          72.5455
4054.47         70.81843
4055.47         69.00632
4056.47         67.05245
4057.47         65.47527
4058.47         68.50272
4059.47         73.67085
4060.47         74.94161
4061.47          72.0878
4062.47         67.98522
4063.47         65.09425
4064.47         63.73919
4065.47         62.79243
4066.47         62.60806
4067.47         63.47947
4068.47         65.85135
4069.47         67.28444
4070.47         66.03957
4071.47         64.84881
4072.47         64.31425
4073.47         63.59256
4074.47         64.64671
4075.47         66.60207
4076.47         66.22744
4077.47         64.09151
4078.47         63.04337
4079.47         63.81863
4080.47         65.68275
4081.47         67.07339
4082.47         66.32516
4083.47         64.59737
4084.47          63.2912
4085.47         62.54317
4086.47         61.22396
4087.47         58.00919
4088.47         54.92155
4089.47         53.80865
4090.47         54.58569
4091.47         55.05783
4092.47         54.33553
4093.47          54.7074
4094.47         55.85313
4095.47         54.46267
4096.47         49.42722
4097.47         45.50146
4098.47          47.2916
4099.47         52.01531
4100.47         53.27411
4101.47         49.65194
4102.47         44.93144
4103.47         42.52506
4104.47         44.60566
4105.47         48.03965
4106.47         49.33276
4107.47         52.87793
4108.47         60.40446
4109.47         66.54324
4110.47         69.28514
4111.47          68.9874
4112.47          64.7001
4113.47         60.27271
4114.47         60.66335
4115.47         64.46114
4116.47         67.39449
4117.47         68.85666
4118.47         70.33729
4119.47         69.59117
4120.47         65.65666
4121.47         62.20187
4122.47         61.35741
4123.47         63.44975
4124.47         67.39523
4125.47          70.5672
4126.47         71.13309
4127.47         68.33044
4128.47         64.01662
4129.47         61.31546
4130.47         61.35603
4131.47         64.17759
4132.47         68.46176
4133.47         72.35671
4134.47         73.89608
4135.47         72.30199
4136.47         71.57477
4137.47         72.06028
4138.47         69.92239
4139.47         67.87808
4140.47         67.92999
4141.47         68.31512
4142.47         70.35062
4143.47          72.5069
4144.47         71.07348
4145.47         69.35262
4146.47         70.13274
4147.47          68.4882
4148.47         64.71004
4149.47         63.51207
4150.47         65.03573
4151.47         67.06576
4152.47         66.83205
4153.47         63.67497
4154.47          60.8313
4155.47         60.34445
4156.47         61.00564
4157.47         61.64402
4158.47         62.36426
4159.47         63.46213
4160.47         66.62381
4161.47         72.96504
4162.47         77.19489
4163.47         77.30747
4164.47         77.41753
4165.47         74.78074
4166.47          68.3778
4167.47         64.04221
4168.47         63.03602
4169.47         63.78645
4170.47         66.09538
4171.47          69.8355
4172.47         73.98004
4173.47         74.92866
4174.47         71.31638
4175.47         67.23244
4176.47         65.86675
4177.47         65.93491
4178.47         66.41769
4179.47         67.06708
4180.47         65.39488
4181.47         62.10419
4182.47         61.62559
4183.47         63.97707
4184.47         66.22604
4185.47         65.95618
4186.47          63.6055
4187.47         62.31693
4188.47         63.95341
4189.47         66.86599
4190.47         68.64865
4191.47         71.92453
4192.47         77.75816
4193.47         83.24706
4194.47         87.12134
4195.47         87.74332
4196.47          83.4642
4197.47         78.32578
4198.47         77.57481
4199.47         79.90716
4200.47         79.16917
4201.47           74.675
4202.47         72.44754
4203.47         74.30907
4204.47         76.27995
4205.47         77.78091
4206.47         80.44592
4207.47         81.84801
4208.47         82.84228
4209.47         84.24049
4210.47         81.48169
4211.47         76.53554
4212.47         74.14696
4213.47         73.60116
4214.47         73.64977
4215.47         75.67563
4216.47         80.15842
4217.47         83.94738
4218.47         83.91583
4219.47         80.84786
4220.47           77.575
4221.47         75.95485
4222.47         75.43772
4223.47         73.56262
4224.47         70.98269
4225.47         70.26646
4226.47         71.30923
4227.47         72.06122
4228.47         71.03117
4229.47         69.09233
4230.47         68.51245
4231.47         71.29128
4232.47         74.44926
4233.47         71.93304
4234.47         67.15582
4235.47         68.55901
4236.47          73.5873
4237.47         75.79968
4238.47         76.45638
4239.47          77.7748
4240.47         78.01925
4241.47         75.24078
4242.47         70.44052
4243.47         66.75439
4244.47         68.50688
4245.47         74.58486
4246.47         75.82317
4247.47         71.92239
4248.47          71.4585
4249.47         72.69201
4250.47         73.48556
4251.47         76.84308
4252.47         79.10091
4253.47          77.8765
4254.47         76.82087
4255.47         75.77866
4256.47         73.11328
4257.47         70.99529
4258.47         69.17385
4259.47         68.82151
4260.47         71.37881
4261.47         73.27433
4262.47         72.32434
4263.47         68.69966
4264.47         63.94787
4265.47         58.50591
4266.47          51.0049
4267.47         47.42398
4268.47         55.26534
4269.47          67.2626
4270.47         72.35104
4271.47         72.06104
4272.47         72.26548
4273.47         72.41598
4274.47         70.63837
4275.47         68.93456
4276.47         69.81902
4277.47         72.27356
4278.47         72.37853
4279.47         70.40066
4280.47         68.26828
4281.47         66.14333
4282.47         66.46945
4283.47         70.22948
4284.47         74.36903
4285.47         76.19198
4286.47         77.22891
4287.47         78.45287
4288.47         77.61838
4289.47         76.00346
4290.47          75.2448
4291.47         73.15057
4292.47         69.56895
4293.47         66.72363
4294.47         66.10175
4295.47         66.51549
4296.47         65.57397
4297.47          63.8703
4298.47         63.73848
4299.47         65.05167
4300.47         65.58993
4301.47         65.36597
4302.47         66.40815
4303.47          68.6599
4304.47         68.75434
4305.47         66.20982
4306.47         64.18434
4307.47         61.98554
4308.47         59.43409
4309.47         60.01614
4310.47          64.0116
4311.47         68.73595
4312.47         72.70118
4313.47         74.45654
4314.47         73.43519
4315.47         71.74168
4316.47         70.33504
4317.47         69.66309
4318.47         69.37489
4319.47         68.16763
4320.47         68.55201
4321.47         71.16325
4322.47         70.94025
4323.47         66.18561
4324.47         61.25869
4325.47         60.43904
4326.47         61.94338
4327.47         60.36614
4328.47         56.94142
4329.47         56.14118
4330.47         56.78094
4331.47          56.0936
4332.47         55.23896
4333.47         55.57494
4334.47         56.88543
4335.47         59.26281
4336.47         62.01456
4337.47         64.00677
4338.47         66.52872
4339.47         69.31317
4340.47         67.69245
4341.47         62.52087
4342.47         58.65693
4343.47          56.3978
4344.47         55.83181
4345.47          55.2093
4346.47         54.30894
4347.47         56.59379
4348.47         60.97809
4349.47         63.85599
4350.47         65.06986
4351.47         65.38145
4352.47         64.36385
4353.47         63.27009
4354.47         63.96588
4355.47         66.08624
4356.47         67.77045
4357.47         69.00201
4358.47         71.37357
4359.47         73.59759
4360.47          71.5729
4361.47         66.32358
4362.47         64.83431
4363.47         69.62852
4364.47         75.29568
4365.47         76.21295
4366.47         74.25964
4367.47         74.97579
4368.47         78.14712
4369.47         78.50101
4370.47         74.44339
4371.47         71.23196
4372.47         71.81584
4373.47         73.76537
4374.47         73.71803
4375.47         71.96123
4376.47         71.08485
4377.47         71.06521
4378.47         71.99368
4379.47         72.78526
4380.47         71.48923
4381.47         69.03767
4382.47          67.3735
4383.47         65.85033
4384.47         64.98023
4385.47         66.91552
4386.47         70.57336
4387.47         74.18719
4388.47         76.04569
4389.47         75.07706
4390.47         73.71034
4391.47         73.74516
4392.47         74.97579
4393.47         77.22362
4394.47         78.36951
4395.47         76.73856
4396.47         74.59605
4397.47         74.05376
4398.47           72.936
4399.47         72.05228
4400.47         74.97668
4401.47         78.75968
4402.47         79.19841
4403.47         78.05519
4404.47         77.69508
4405.47         76.57446
4406.47         74.20721
4407.47         73.13368
4408.47         75.07064
4409.47         79.62576
4410.47         82.61849
4411.47         79.14864
4412.47         73.97439
4413.47         74.33197
4414.47         76.66359
4415.47         76.70991
4416.47         76.97421
4417.47         77.83518
4418.47         77.40074
4419.47         75.84765
4420.47         73.55095
4421.47         70.10334
4422.47         65.18021
4423.47         61.21233
4424.47         61.87342
4425.47         65.91235
4426.47         68.95179
4427.47         69.21789
4428.47         67.83053
4429.47         66.28008
4430.47         65.78956
4431.47         67.03847
4432.47         69.53351
4433.47         70.98832
4434.47         71.09416
4435.47         72.38877
4436.47         72.91573
4437.47          70.0472
4438.47         68.26356
4439.47         69.77554
4440.47         70.40543
4441.47         69.16898
4442.47         69.42531
4443.47         70.96299
4444.47         71.11865
4445.47         72.09821
4446.47          75.8578
4447.47         80.37057
4448.47         82.72153
4449.47         82.31778
4450.47         83.55129
4451.47         86.42845
4452.47          85.5503
4453.47         81.04025
4454.47         76.60431
4455.47         75.33228
4456.47         78.44112
4457.47         82.94598
4458.47         84.89026
4459.47         83.12675
4460.47         79.20443
4461.47         75.13734
4462.47         72.00784
4463.47         70.65528
4464.47         71.37178
4465.47         73.56655
4466.47         74.92415
4467.47         75.50182
4468.47         77.36081
4469.47         78.75852
4470.47         78.08483
4471.47         77.66191
4472.47         78.50509
4473.47          79.9233
4474.47         80.16528
4475.47         76.34451
4476.47         72.10892
4477.47         72.18284
4478.47         72.83372
4479.47         70.85463
4480.47         69.30624
4481.47         69.56561
4482.47         70.28545
4483.47         71.79531
4484.47         75.00326
4485.47         77.87885
4486.47         75.99181
4487.47         72.20004
4488.47         72.71959
4489.47         77.09988
4490.47         81.67255
4491.47         83.05991
4492.47         80.71483
4493.47         78.03917
4494.47         77.64056
4495.47         78.90369
4496.47         80.49837
4497.47         82.40602
4498.47         83.40678
4499.47         81.90031
4500.47         79.57807
4501.47         78.84248
4502.47         80.02689
4503.47         81.24633
4504.47         80.24667
4505.47         78.58926
4506.47         80.39751
4507.47         84.17989
4508.47          84.8624
4509.47         82.51179
4510.47          80.2249
4511.47         78.78567
4512.47          77.6108
4513.47         77.65479
4514.47         79.99768
4515.47         82.27986
4516.47         81.32313
4517.47         78.11572
4518.47         77.04094
4519.47         79.51925
4520.47         81.80406
4521.47         81.66934
4522.47         81.41066
4523.47         82.41711
4524.47         82.58107
4525.47         80.72848
4526.47         78.49345
4527.47         77.60302
4528.47             76.8
4529.47         75.60516
4530.47          76.2328
4531.47         78.13403
4532.47         78.92189
4533.47         78.86243
4534.47         79.36711
4535.47         80.51889
4536.47         81.39298
4537.47         81.94463
4538.47         81.68819
4539.47         80.56884
4540.47         80.42249
4541.47          82.2919
4542.47         84.96986
4543.47         85.70129
4544.47         84.37264
4545.47         83.00539
4546.47         82.84795
4547.47         83.99831
4548.47         85.25574
4549.47          83.8651
4550.47         79.59767
4551.47          76.2974
4552.47         75.50303
4553.47         75.29016
4554.47         75.07912
4555.47         76.70944
4556.47         78.58559
4557.47         77.49445
4558.47         75.79214
4559.47         77.28474
4560.47         80.60742
4561.47         82.17371
4562.47         82.53027
4563.47         83.14288
4564.47         81.99676
4565.47         79.92818
4566.47         80.94302
4567.47         84.73856
4568.47         86.91493
4569.47         85.11506
4570.47         81.34289
4571.47         79.34253
4572.47         80.37427
4573.47         81.62171
4574.47         81.50262
4575.47         82.28709
4576.47         82.92656
4577.47         80.48662
4578.47          77.6132
4579.47         77.32117
4580.47         77.81723
4581.47         76.94913
4582.47         76.24698
4583.47          76.8863
4584.47         78.47435
4585.47         80.83527
4586.47          81.8644
4587.47         80.68798
4588.47         80.15404
4589.47         81.40723
4590.47         82.62033
4591.47         83.39436
4592.47          83.2878
4593.47         83.41196
4594.47         86.65827
4595.47         91.04241
4596.47         91.35242
4597.47         88.08909
4598.47         86.17876
4599.47         85.31915
4600.47         82.67134
4601.47         79.98744
4602.47         80.08907
4603.47         80.82935
4604.47         79.76003
4605.47         80.99421
4606.47         86.87001
4607.47         90.41271
4608.47         88.48383
4609.47         84.80595
4610.47         81.71095
4611.47         81.75188
4612.47         84.09309
4613.47         84.25308
4614.47         81.76521
4615.47         79.80642
4616.47         79.22122
4617.47         79.05337
4618.47         79.85532
4619.47         80.76079
4620.47         80.46343
4621.47         81.16193
4622.47         83.19672
4623.47         82.93724
4624.47         81.45109
4625.47         81.21977
4626.47           81.157
4627.47          79.8539
4628.47         77.24537
4629.47          76.4781
4630.47         79.54777
4631.47         82.86061
4632.47         83.83264
4633.47          82.8663
4634.47           79.757
4635.47         74.68382
4636.47         69.60513
4637.47         67.84462
4638.47         70.60439
4639.47         75.13607
4640.47         78.97126
4641.47         80.50594
4642.47         78.88824
4643.47         76.31116
4644.47         75.38151
4645.47         74.92651
4646.47         74.70058
4647.47          75.9094
4648.47         76.69849
4649.47         76.56528
4650.47          77.5871
4651.47         81.07279
4652.47         84.10693
4653.47         82.70505
4654.47         79.41788
4655.47         79.21656
4656.47         81.88773
4657.47          84.9355
4658.47         87.07972
4659.47         87.54444
4660.47         84.79459
4661.47         79.26093
4662.47         75.23866
4663.47         74.57108
4664.47         75.82558
4665.47         77.80688
4666.47         79.14201
4667.47         79.44286
4668.47         79.21804
4669.47         79.91722
4670.47         80.81776
4671.47          78.8323
4672.47         75.46709
4673.47         75.51334
4674.47         78.89973
4675.47          81.7126
4676.47         82.65906
4677.47         81.59595
4678.47         78.99562
4679.47         78.06921
4680.47          79.1073
4681.47         79.00044
4682.47         79.41823
4683.47         82.71435
4684.47         86.08791
4685.47         86.78046
4686.47         86.25808
4687.47         86.08463
4688.47         85.32355
4689.47         84.14581
4690.47         82.44385
4691.47         80.62456
4692.47         80.16695
4693.47         80.50498
4694.47         81.10199
4695.47         81.56639
4696.47         81.24188
4697.47          81.9229
4698.47         84.67513
4699.47          86.3209
4700.47         85.20419
4701.47          83.0627
4702.47         80.56196
4703.47         78.35519
4704.47         77.71001
4705.47         77.33199
4706.47         74.12548
4707.47         68.02589
4708.47         65.32821
4709.47         70.46981
4710.47         78.40919
4711.47         82.37592
4712.47          81.2477
4713.47         77.33958
4714.47         74.10239
4715.47          74.5588
4716.47         76.70091
4717.47         76.84234
4718.47         76.33417
4719.47         77.20005
4720.47         79.23869
4721.47          81.3058
4722.47         82.09528
4723.47         82.26307
4724.47         82.58818
4725.47         82.08949
4726.47         79.73301
4727.47         77.58979
4728.47          76.0116
4729.47         74.52564
4730.47         74.45709
4731.47         76.64925
4732.47         80.32506
4733.47         82.71607
4734.47         83.09589
4735.47         83.24113
4736.47         83.15334
4737.47         83.37735
4738.47         85.40926
4739.47         87.20915
4740.47          85.8879
4741.47         83.91337
4742.47         83.81886
4743.47         83.70546
4744.47         82.87107
4745.47         82.66248
4746.47         82.67397
4747.47         82.47224
4748.47         82.56184
4749.47         82.53185
4750.47         83.49899
4751.47          85.5227
4752.47         85.28508
4753.47         84.58431
4754.47         87.42289
4755.47         90.65773
4756.47         89.85253
4757.47         86.52136
4758.47         83.95122
4759.47         81.26907
4760.47         77.36445
4761.47         73.58756
4762.47         69.75081
4763.47         67.36086
4764.47         69.41693
4765.47         74.08473
4766.47         78.28293
4767.47         80.81197
4768.47         81.81018
4769.47         82.58437
4770.47          83.6572
4771.47          84.3818
4772.47         83.52792
4773.47         79.71398
4774.47          75.3684
4775.47          75.0519
4776.47         78.30858
4777.47          80.7392
4778.47         80.54652
4779.47         80.40031
4780.47         82.16983
4781.47         83.21313
4782.47         81.97912
4783.47          81.2005
4784.47         81.42828
4785.47         82.24967
4786.47          83.5461
4787.47         81.95575
4788.47           78.829
4789.47         80.14893
4790.47         84.88559
4791.47         86.73038
4792.47         85.04064
4793.47         85.04513
4794.47         87.76128
4795.47         88.53469
4796.47         87.51544
4797.47         87.25287
4798.47         86.70097
4799.47         85.77475
4800.47         85.81457
4801.47         86.46304
4802.47         87.30748
4803.47         87.95956
4804.47         87.10944
4805.47         84.72758
4806.47         81.38405
4807.47         78.36611
4808.47         77.47232
4809.47         77.91734
4810.47         79.12498
4811.47         82.05556
4812.47         86.05274
4813.47         88.16872
4814.47         86.88168
4815.47         85.66592
4816.47         86.46894
4817.47         86.78469
4818.47         85.83451
4819.47          83.8709
4820.47         79.97519
4821.47         75.02008
4822.47         72.20228
4823.47         73.53239
4824.47         77.61206
4825.47         81.06054
4826.47         81.77525
4827.47         80.90781
4828.47         80.66786
4829.47         80.80659
4830.47         79.51476
4831.47         77.29202
4832.47         77.16084
4833.47         79.59965
4834.47         81.25132
4835.47         80.94952
4836.47         81.08478
4837.47         81.98817
4838.47         81.32931
4839.47         79.99727
4840.47         80.88636
4841.47         81.75172
4842.47         79.43063
4843.47         76.12696
4844.47         74.31618
4845.47         75.07588
4846.47         77.68049
4847.47         78.99409
4848.47         78.16397
4849.47         76.11644
4850.47          72.4513
4851.47         68.13435
4852.47         65.35111
4853.47         64.92189
4854.47         66.35411
4855.47         69.53994
4856.47         77.50259
4857.47         92.70318
4858.47         114.3086
4859.47          138.063
4860.47          153.143
4861.47         147.0993
4862.47         121.8716
4863.47          93.3557
4864.47          73.2013
4865.47         63.46165
4866.47         63.25249
4867.47         68.07654
4868.47         71.33253
4869.47         71.83452
4870.47          72.1464
4871.47         73.14449
4872.47         73.15862
4873.47         71.27488
4874.47         68.75834
4875.47         66.92134
4876.47         66.64828
4877.47         67.06206
4878.47         67.53516
4879.47         70.87898
4880.47         76.95152
4881.47         80.21056
4882.47         79.23837
4883.47         77.86326
4884.47         78.92632
4885.47         80.96967
4886.47         82.30613
4887.47          82.4967
4888.47         81.75873
4889.47         80.55624
4890.47         79.33334
4891.47         80.12057
4892.47         83.99602
4893.47         88.36822
4894.47         90.97253
4895.47         92.80054
4896.47         92.27612
4897.47         87.98981
4898.47          84.2346
4899.47         84.28981
4900.47         85.87017
4901.47         84.55038
4902.47         80.69181
4903.47         80.03523
4904.47         83.62573
4905.47         88.20831
4906.47         92.05684
4907.47         92.73417
4908.47         89.54673
4909.47         86.52479
4910.47         86.57881
4911.47         87.74033
4912.47         87.33849
4913.47         85.14049
4914.47         84.54414
4915.47         87.39571
4916.47         89.84386
4917.47         89.59048
4918.47         87.35991
4919.47         82.73872
4920.47         76.39919
4921.47         71.67374
4922.47         72.06126
4923.47         75.77015
4924.47         78.78085
4925.47         81.70965
4926.47         85.02897
4927.47         87.70472
4928.47         89.00932
4929.47         89.09328
4930.47         89.02646
4931.47         89.51534
4932.47         90.21025
4933.47         89.32629
4934.47         88.03094
4935.47         89.46265
4936.47         91.29951
4937.47          89.4814
4938.47         86.67825
4939.47         87.79182
4940.47          91.4023
4941.47         93.08213
4942.47          91.1374
4943.47         87.36977
4944.47         85.68588
4945.47         87.06039
4946.47         89.45517
4947.47         91.41847
4948.47         92.55856
4949.47          93.3813
4950.47         94.77071
4951.47         95.94867
4952.47         94.47864
4953.47          91.2433
4954.47          89.7138
4955.47         91.53223
4956.47         96.25908
4957.47         99.15913
4958.47         97.16885
4959.47         95.16525
4960.47         95.69711
4961.47         95.34529
4962.47         92.85818
4963.47         90.58167
4964.47          89.7577
4965.47         88.69418
4966.47         86.23965
4967.47         83.83717
4968.47         82.58291
4969.47         82.69567
4970.47         85.74377
4971.47         90.96529
4972.47         93.98058
4973.47         93.32738
4974.47         91.69599
4975.47         90.67367
4976.47          88.4868
4977.47         86.29377
4978.47         87.48821
4979.47         90.20459
4980.47         90.52092
4981.47         88.06889
4982.47         85.99136
4983.47         86.43376
4984.47         88.33854
4985.47         89.79835
4986.47         90.21412
4987.47         89.17719
4988.47         87.67114
4989.47         89.01192
4990.47         93.48646
4991.47          95.9396
4992.47         92.37371
4993.47         87.84486
4994.47         88.00224
4995.47         90.11707
4996.47         90.82198
4997.47         90.92141
4998.47         91.68372
4999.47          93.3549
5000.47         95.00301
5001.47         96.83846
5002.47         100.3138
5003.47         104.0102
5004.47         107.4007
5005.47         111.7356
5006.47         114.6201
5007.47         111.8319
5008.47         104.4099
5009.47         97.51842
5010.47         93.53577
5011.47         93.63602
5012.47         95.49385
5013.47         93.25343
5014.47          87.9137
5015.47         84.62255
5016.47         83.70393
5017.47         84.75391
5018.47         88.15255
5019.47         91.39349
5020.47         92.81586
5021.47         92.07053
5022.47         89.76168
5023.47         88.95474
5024.47         90.46004
5025.47         92.12351
5026.47           93.174
5027.47         91.12608
5028.47          86.3578
5029.47         85.44006
5030.47         88.45038
5031.47         89.36264
5032.47         88.25134
5033.47         88.92562
5034.47         89.84109
5035.47          88.2364
5036.47         85.82033
5037.47         84.62653
5038.47         86.16376
5039.47         89.06687
5040.47         89.56112
5041.47         88.29765
5042.47         87.12726
5043.47         87.53703
5044.47         91.33179
5045.47         96.67225
5046.47         99.47193
5047.47         97.47655
5048.47          92.4384
5049.47         89.35283
5050.47         89.60662
5051.47          90.4175
5052.47         90.82069
5053.47         91.47945
5054.47         93.12018
5055.47         95.24072
5056.47         96.39449
5057.47         95.45235
5058.47         92.59755
5059.47         91.05098
5060.47         93.38026
5061.47         96.66998
5062.47         97.77399
5063.47         96.64249
5064.47         94.21448
5065.47         92.22704
5066.47         90.94241
5067.47         91.07195
5068.47         93.99386
5069.47         95.48669
5070.47         92.47202
5071.47         89.82504
5072.47          90.7096
5073.47         93.22879
5074.47         96.01612
5075.47         97.04298
5076.47         94.67775
5077.47         91.82639
5078.47         90.00287
5079.47         88.68999
5080.47         88.92063
5081.47         90.21042
5082.47         90.98998
5083.47         92.03331
5084.47         93.73301
5085.47         94.07453
5086.47         90.53379
5087.47         85.05363
5088.47         83.79406
5089.47         88.46249
5090.47         95.32102
5091.47         99.16696
5092.47         99.02692
5093.47         98.17559
5094.47         96.58681
5095.47         93.18043
5096.47         90.63322
5097.47         90.99706
5098.47         92.61626
5099.47         93.93037
5100.47         94.66032
5101.47         94.86084
5102.47         95.87259
5103.47          97.9948
5104.47         98.51657
5105.47         94.26488
5106.47         87.95502
5107.47         86.13537
5108.47         89.24635
5109.47         93.78667
5110.47         96.67551
5111.47         97.04798
5112.47         96.60231
5113.47           96.631
5114.47         98.79514
5115.47         101.1265
5116.47         99.88548
5117.47         95.33556
5118.47         90.30331
5119.47         88.56217
5120.47         86.79031
5121.47           81.827
5122.47         80.21536
5123.47         83.02795
5124.47         82.68866
5125.47         79.85013
5126.47         80.37954
5127.47         81.49915
5128.47           79.874
5129.47         83.17335
5130.47         95.13187
5131.47          103.649
5132.47         102.2134
5133.47         97.83174
5134.47         96.40796
5135.47         99.38957
5136.47         102.6612
5137.47         101.5165
5138.47         96.90906
5139.47         92.92834
5140.47         91.67171
5141.47         89.77578
5142.47         83.66033
5143.47         78.64735
5144.47         80.51731
5145.47         85.41161
5146.47         88.71722
5147.47         91.84154
5148.47         95.35233
5149.47          97.0901
5150.47         96.22282
5151.47         95.38468
5152.47         97.14686
5153.47         97.78297
5154.47         95.53356
5155.47         94.38968
5156.47         95.57364
5157.47          97.5411
5158.47         100.0989
5159.47         102.3112
5160.47         101.6524
5161.47         100.5093
5162.47         101.9304
5163.47         102.5583
5164.47         98.00517
5165.47         91.87258
5166.47         91.05017
5167.47           93.128
5168.47         91.55365
5169.47         88.58156
5170.47         88.97796
5171.47          92.8784
5172.47          95.7944
5173.47         94.54526
5174.47           93.054
5175.47         94.76754
5176.47         98.22896
5177.47          100.553
5178.47         102.8264
5179.47         105.4222
5180.47         104.7559
5181.47         101.3938
5182.47         98.15433
5183.47         96.06542
5184.47         96.54166
5185.47         99.15519
5186.47         102.1019
5187.47          106.989
5188.47         112.3432
5189.47         114.0088
5190.47         112.1923
5191.47         106.1625
5192.47         99.30853
5193.47         98.22518
5194.47          101.876
5195.47         107.5894
5196.47         113.3812
5197.47         115.7489
5198.47         115.8056
5199.47         116.3069
5200.47         115.5164
5201.47         111.7964
5202.47         107.4229
5203.47         104.2765
5204.47         101.3286
5205.47         99.30724
5206.47         99.23388
5207.47         98.01056
5208.47          95.0475
5209.47         96.24401
5210.47         102.5386
5211.47         107.8672
5212.47         109.0249
5213.47         107.8664
5214.47         106.8645
5215.47         105.8505
5216.47         107.1104
5217.47         113.7472
5218.47         120.5102
5219.47         120.3676
5220.47         115.7357
5221.47         111.5405
5222.47         108.3752
5223.47         104.7586
5224.47         101.6819
5225.47         101.1906
5226.47         101.1054
5227.47         99.74674
5228.47         99.23609
5229.47         100.6739
5230.47         102.6645
5231.47         103.1391
5232.47         103.5091
5233.47         105.8776
5234.47         108.8108
5235.47         111.2085
5236.47         112.8177
5237.47         113.4245
5238.47         112.2324
5239.47         110.7447
5240.47         113.5556
5241.47         118.1477
5242.47          119.545
5243.47         121.1772
5244.47          124.419
5245.47         124.1173
5246.47         119.8821
5247.47         117.3486
5248.47          118.806
5249.47          119.473
5250.47         116.6526
5251.47         112.4085
5252.47         107.9566
5253.47         106.0331
5254.47         108.2216
5255.47         111.4672
5256.47         114.7206
5257.47         117.8723
5258.47         118.2535
5259.47         115.4326
5260.47         111.7967
5261.47          108.504
5262.47         106.1845
5263.47         106.4521
5264.47         108.5667
5265.47         109.3055
5266.47         109.4472
5267.47         111.2558
5268.47         110.7211
5269.47         107.7215
5270.47         109.7144
5271.47          115.534
5272.47         117.4177
5273.47         116.4895
5274.47         115.5525
5275.47         113.0246
5276.47         109.9749
5277.47         108.2423
5278.47         105.9106
5279.47         104.3278
5280.47         107.3623
5281.47         112.8822
5282.47         117.2355
5283.47          119.379
5284.47         118.9826
5285.47          116.504
5286.47         115.4286
5287.47         116.6959
5288.47         115.2434
5289.47         111.3182
5290.47          110.433
5291.47         111.1129
5292.47         109.0377
5293.47         107.1946
5294.47         109.7226
5295.47         114.6823
5296.47         116.1616
5297.47         113.1259
5298.47         110.3245
5299.47         106.5751
5300.47         101.4766
5301.47         103.1412
5302.47         111.4878
5303.47         115.2226
5304.47         111.7923
5305.47         110.2774
5306.47          113.169
5307.47         115.1503
5308.47         114.2296
5309.47         116.3943
5310.47         123.1555
5311.47         121.0327
5312.47         118.5982
5313.47         119.0982
5314.47         118.9031
5315.47         117.0791
5316.47         117.7533
5317.47          118.948
5318.47         117.6679
5319.47         113.9831
5320.47         113.6729
5321.47         120.0009
5322.47          125.452
5323.47         124.0235
5324.47         119.7708
5325.47         116.7686
5326.47         114.4758
5327.47         110.2615
5328.47         104.1804
5329.47         101.2444
5330.47         105.4883
5331.47         111.1434
5332.47         111.9007
5333.47          108.026
5334.47         103.1434
5335.47         102.0371
5336.47         105.1638
5337.47         108.6175
5338.47         110.9519
5339.47         112.6964
5340.47         112.1371
5341.47         109.9896
5342.47         112.8652
5343.47         118.5326
5344.47         119.7915
5345.47          118.492
5346.47         120.4305
5347.47         124.0076
5348.47         124.0478
5349.47          124.993
5350.47         124.8948
5351.47         120.0765
5352.47         118.6873
5353.47         122.7684
5354.47         127.9961
5355.47          131.296
5356.47         130.2076
5357.47         126.8118
5358.47         125.2031
5359.47         124.3777
5360.47         123.2534
5361.47         122.3886
5362.47         121.9533
5363.47         119.1762
5364.47         117.4517
5365.47         120.5738
5366.47         117.8564
5367.47         113.6907
5368.47         116.2011
5369.47           118.89
5370.47         119.2839
5371.47         118.7161
5372.47          118.736
5373.47         120.3006
5374.47         122.8899
5375.47         125.2388
5376.47         126.4258
5377.47         125.4175
5378.47         122.9312
5379.47         121.4358
5380.47         122.7297
5381.47         124.2214
5382.47          122.733
5383.47         119.9897
5384.47         120.7377
5385.47         122.5434
5386.47         119.9936
5387.47         118.3158
5388.47         117.0402
5389.47         113.7494
5390.47         112.4321
5391.47         114.4029
5392.47         116.0779
5393.47         113.7166
5394.47         110.3121
5395.47         111.7261
5396.47          117.941
5397.47         121.6717
5398.47         120.5896
5399.47          118.163
5400.47         117.4205
5401.47         114.9921
5402.47         113.8776
5403.47         115.8854
5404.47         114.4545
5405.47          110.962
5406.47          110.964
5407.47         115.3873
5408.47         117.0466
5409.47         114.7305
5410.47         113.4637
5411.47         115.8075
5412.47          117.951
5413.47         118.4513
5414.47          120.791
5415.47         126.4885
5416.47         130.7366
5417.47         130.0379
5418.47         128.5527
5419.47         128.8683
5420.47         129.2065
5421.47         126.8331
5422.47         123.2947
5423.47         121.8269
5424.47         122.2839
5425.47         120.6598
5426.47         117.2972
5427.47         114.3808
5428.47         114.0031
5429.47         118.2762
5430.47          123.583
5431.47         124.7502
5432.47         121.6344
5433.47         119.0148
5434.47          119.082
5435.47         120.0491
5436.47         121.3078
5437.47         121.4559
5438.47         122.1889
5439.47         127.8451
5440.47         133.3794
5441.47         132.1503
5442.47         124.8862
5443.47         120.0664
5444.47         118.9317
5445.47         118.1766
5446.47         117.9413
5447.47         118.3177
5448.47         118.4508
5449.47         118.0033
5450.47         118.6535
5451.47         118.7507
5452.47         117.0011
5453.47         116.1582
5454.47          116.945
5455.47         120.2495
5456.47         126.1334
5457.47         130.0915
5458.47         127.2249
5459.47         121.2619
5460.47         122.2115
5461.47         124.3745
5462.47         124.1944
5463.47         126.1675
5464.47         128.6062
5465.47          128.336
5466.47          127.195
5467.47         130.0671
5468.47         131.5701
5469.47         128.7618
5470.47         126.4801
5471.47         128.7086
5472.47         130.7432
5473.47         127.8917
5474.47         124.2958
5475.47         122.5296
5476.47         121.6963
5477.47         121.2398
5478.47         124.0077
5479.47         126.1392
5480.47         124.8517
5481.47         125.6926
5482.47         129.2342
5483.47         131.1903
5484.47         129.6322
5485.47           129.48
5486.47         129.1904
5487.47         126.6151
5488.47         126.2434
5489.47         128.3302
5490.47         128.7021
5491.47         125.0563
5492.47         122.7214
5493.47          125.576
5494.47         131.6801
5495.47         135.4858
5496.47         132.1086
5497.47          126.612
5498.47         126.7834
5499.47         127.2625
5500.47         131.3094
5501.47         137.1426
5502.47         130.6326
5503.47         123.1945
5504.47         123.2466
5505.47         124.4161
5506.47         123.6301
5507.47         123.0819
5508.47         123.9834
5509.47         123.1383
5510.47         121.4232
5511.47         120.8807
5512.47         121.7854
5513.47          123.575
5514.47         125.5668
5515.47         127.4672
5516.47         129.2612
5517.47         130.3391
5518.47         129.6419
5519.47         128.3878
5520.47         131.0639
5521.47         134.4988
5522.47         133.5745
5523.47         129.5657
5524.47         126.5833
5525.47         127.1234
5526.47          129.239
5527.47         128.2287
5528.47         125.3827
5529.47         124.6016
5530.47         125.9825
5531.47         128.3971
5532.47         129.5784
5533.47         128.4471
5534.47         127.8214
5535.47         127.2451
5536.47         125.9418
5537.47         126.4855
5538.47         128.5731
5539.47         131.1131
5540.47         132.9275
5541.47         131.4792
5542.47         129.4845
5543.47         130.1737
5544.47         131.6273
5545.47         131.7188
5546.47         130.8088
5547.47          131.101
5548.47          133.487
5549.47         135.1629
5550.47         135.5008
5551.47         137.7183
5552.47         137.5043
5553.47         133.1602
5554.47         129.8491
5555.47         131.2146
5556.47         133.2603
5557.47         131.5903
5558.47         128.3975
5559.47         127.5188
5560.47         128.9182
5561.47         130.1594
5562.47         131.9455
5563.47         133.0986
5564.47         131.7262
5565.47         128.7877
5566.47         127.7716
5567.47         128.9223
5568.47          129.733
5569.47         130.1747
5570.47         130.5332
5571.47         129.5941
5572.47         129.0197
5573.47         142.1813
5574.47         155.2186
5575.47         144.9415
5576.47           130.71
5577.47         124.0554
5578.47         123.1143
5579.47         126.3136
5580.47         129.2892
5581.47         129.9489
5582.47         129.9821
5583.47         130.8474
5584.47          132.321
5585.47         132.1524
5586.47         128.6077
5587.47         126.0375
5588.47          126.356
5589.47         127.0866
5590.47          127.846
5591.47         128.2218
5592.47         128.5382
5593.47         129.6862
5594.47         129.2108
5595.47         131.1306
5596.47         137.8045
5597.47         135.4388
5598.47           129.73
5599.47         130.1631
5600.47          129.063
5601.47         126.4931
5602.47         126.0577
5603.47          128.457
5604.47         131.8192
5605.47          133.513
5606.47         133.1283
5607.47         132.8401
5608.47         132.6116
5609.47          132.272
5610.47         132.6626
5611.47         134.0455
5612.47         135.2516
5613.47          134.284
5614.47         130.7404
5615.47         129.3054
5616.47         130.8052
5617.47         130.9465
5618.47         128.8025
5619.47         128.1078
5620.47         129.0229
5621.47         127.2698
5622.47         129.0556
5623.47         132.7318
5624.47         131.6236
5625.47         133.2766
5626.47         134.8009
5627.47         131.9208
5628.47         131.1673
5629.47          133.162
5630.47         133.6025
5631.47         131.3593
5632.47         132.6442
5633.47         134.7522
5634.47         133.3009
5635.47         131.6498
5636.47         130.7465
5637.47          131.226
5638.47         133.4322
5639.47         134.6419
5640.47         132.9197
5641.47         129.3453
5642.47         127.1432
5643.47         127.3903
5644.47         128.9915
5645.47         130.5576
5646.47         131.8884
5647.47         131.6898
5648.47         130.5268
5649.47         131.8409
5650.47          135.773
5651.47         137.3739
5652.47         133.5701
5653.47         130.8225
5654.47         128.7145
5655.47          127.596
5656.47         132.6406
5657.47         133.1254
5658.47         128.8463
5659.47         129.6091
5660.47         131.3888
5661.47         132.8829
5662.47          133.497
5663.47         130.0655
5664.47         128.0699
5665.47         128.9301
5666.47          128.567
5667.47         127.5819
5668.47         128.1319
5669.47         131.2582
5670.47         135.8462
5671.47         139.5979
5672.47         138.9682
5673.47         134.4527
5674.47          133.759
5675.47          134.607
5676.47         133.8771
5677.47         135.9881
5678.47         138.2277
5679.47         136.5912
5680.47         132.5832
5681.47         131.9137
5682.47         132.9008
5683.47         131.5641
5684.47         129.6864
5685.47         132.3055
5686.47         136.0187
5687.47         134.0917
5688.47         131.4744
5689.47         130.9213
5690.47         132.2407
5691.47         135.2581
5692.47         135.5464
5693.47         134.6309
5694.47         136.6832
5695.47         137.0692
5696.47         132.7476
5697.47         127.7593
5698.47         128.8414
5699.47         133.0541
5700.47         133.8408
5701.47         130.4589
5702.47         129.3007
5703.47          129.608
5704.47         128.1483
5705.47         126.8295
5706.47         128.0865
5707.47         129.5363
5708.47           128.27
5709.47         128.5431
5710.47         131.7799
5711.47         134.5349
5712.47         133.8297
5713.47         134.1475
5714.47         134.8996
5715.47         132.9222
5716.47         134.7384
5717.47         138.1381
5718.47         138.0276
5719.47         136.1814
5720.47         134.6879
5721.47         134.9599
5722.47         136.4871
5723.47         135.9291
5724.47         132.9664
5725.47         131.3617
5726.47         134.1571
5727.47         137.4057
5728.47         137.5368
5729.47         135.3919
5730.47         133.4773
5731.47         131.8271
5732.47          130.981
5733.47          132.881
5734.47         134.2365
5735.47         133.6304
5736.47         134.8857
5737.47         141.3856
5738.47         143.3899
5739.47         136.6522
5740.47         132.5221
5741.47         132.3377
5742.47         132.9501
5743.47         132.7976
5744.47         131.9165
5745.47         131.9591
5746.47         133.3933
5747.47         134.7528
5748.47         135.8211
5749.47         136.9766
5750.47         138.2486
5751.47          139.354
5752.47         141.1134
5753.47         142.2755
5754.47         139.7824
5755.47         136.0806
5756.47         135.2137
5757.47          137.574
5758.47         138.7392
5759.47         137.6549
5760.47          135.445
5761.47         133.0096
5762.47         133.7975
5763.47         136.3671
5764.47         137.0958
5765.47         137.9926
5766.47         136.8158
5767.47         133.4613
5768.47         133.5251
5769.47         134.9887
5770.47         135.1084
5771.47         134.5488
5772.47         134.5204
5773.47         136.7098
5774.47          139.105
5775.47         136.8394
5776.47         131.9408
5777.47         128.5047
5778.47         127.1016
5779.47         124.5624
5780.47          122.001
5781.47          121.868
5782.47         123.4786
5783.47         125.8363
5784.47         129.5514
5785.47         134.2364
5786.47         135.6925
5787.47         134.2758
5788.47         134.3692
5789.47         137.2267
5790.47         135.7147
5791.47         132.4471
5792.47         133.7924
5793.47          132.244
5794.47         131.1235
5795.47         133.3259
5796.47         131.4344
5797.47         127.7122
5798.47         125.9704
5799.47         127.7239
5800.47         134.8625
5801.47         139.5455
5802.47         137.7581
5803.47         136.7811
5804.47         137.1442
5805.47         136.6733
5806.47         135.6324
5807.47         136.5882
5808.47         139.8532
5809.47         142.3365
5810.47         141.0022
5811.47         138.2714
5812.47         137.0876
5813.47         137.3981
5814.47         136.9003
5815.47         134.3806
5816.47         134.5149
5817.47         142.1246
5818.47         146.5774
5819.47         143.6565
5820.47         140.2075
5821.47         140.4067
5822.47         140.8307
5823.47         138.4721
5824.47          137.044
5825.47         139.4438
5826.47         142.1426
5827.47         140.4923
5828.47         137.1279
5829.47         136.1778
5830.47          137.968
5831.47         139.0952
5832.47         139.2816
5833.47         140.1627
5834.47         141.5173
5835.47         140.4267
5836.47         138.7068
5837.47         139.9348
5838.47         143.3665
5839.47         142.3641
5840.47          137.648
5841.47           136.04
5842.47         137.3638
5843.47         138.6083
5844.47         139.6591
5845.47         141.7284
5846.47         138.0852
5847.47         131.5109
5848.47         131.5022
5849.47         136.3189
5850.47         137.6507
5851.47         133.2042
5852.47         129.9366
5853.47         129.3573
5854.47         131.8974
5855.47         136.2574
5856.47         135.9741
5857.47         134.5892
5858.47         135.6466
5859.47         134.8618
5860.47         133.5792
5861.47         134.5684
5862.47          137.393
5863.47         138.9685
5864.47         137.7074
5865.47         135.0031
5866.47          133.925
5867.47         135.7814
5868.47         138.0817
5869.47         138.8208
5870.47         141.1024
5871.47         143.8655
5872.47         145.0032
5873.47         146.0836
5874.47          149.828
5875.47         153.6136
5876.47         151.6456
5877.47         143.4487
5878.47         133.5447
5879.47         129.0982
5880.47         132.2946
5881.47         131.6926
5882.47         124.4317
5883.47         116.9488
5884.47         109.8102
5885.47         102.0697
5886.47         94.83308
5887.47         86.67871
5888.47         64.60426
5889.47         35.42467
5890.47         23.41003
5891.47         39.58963
5892.47         67.72215
5893.47          81.1241
5894.47         67.88769
5895.47         44.30227
5896.47         37.02973
5897.47         57.63988
5898.47         93.08098
5899.47         121.6499
5900.47         132.5552
5901.47         131.5397
5902.47         129.4833
5903.47         131.8964
5904.47         136.3871
5905.47         138.6081
5906.47         136.7999
5907.47         134.1177
5908.47          134.909
5909.47         137.5748
5910.47         138.1217
5911.47         135.8607
5912.47         135.4057
5913.47         137.5321
5914.47         138.6819
5915.47         136.1467
5916.47         132.0355
5917.47         129.4952
5918.47         131.2518
5919.47          138.944
5920.47         142.5595
5921.47         136.8329
5922.47         131.7963
5923.47          134.115
5924.47         141.1856
5925.47         144.8694
5926.47         140.4745
5927.47         135.4473
5928.47          136.036
5929.47         138.4891
5930.47         139.9384
5931.47         139.5284
5932.47         138.2188
5933.47         137.7028
5934.47         138.1246
5935.47         138.4734
5936.47         138.5639
5937.47         140.5028
5938.47         141.8787
5939.47         138.8387
5940.47         134.5208
5941.47         132.8948
5942.47         133.0881
5943.47         131.8925
5944.47         133.1309
5945.47         134.6821
5946.47         132.8612
5947.47         133.9218
5948.47          134.945
5949.47         133.5744
5950.47         135.1116
5951.47         137.2255
5952.47         138.8774
5953.47         140.1312
5954.47         136.6059
5955.47          132.968
5956.47         133.7415
5957.47         135.4171
5958.47         135.9045
5959.47         135.3636
5960.47         135.3405
5961.47         136.8826
5962.47         137.0723
5963.47         135.0753
5964.47         134.4018
5965.47         135.2728
5966.47         136.1073
5967.47           136.15
5968.47         136.5088
5969.47         138.3498
5970.47         139.2127
5971.47         135.3544
5972.47         130.1875
5973.47         128.9062
5974.47         132.8876
5975.47         137.8935
5976.47         138.3971
5977.47          136.351
5978.47         138.5814
5979.47          140.744
5980.47         141.0542
5981.47         140.6194
5982.47         135.4093
5983.47         130.5972
5984.47         131.7527
5985.47         135.5372
5986.47         137.0349
5987.47         134.6547
5988.47         131.9071
5989.47         133.8284
5990.47         136.9263
5991.47         137.6551
5992.47         138.2321
5993.47         138.1463
5994.47         135.8888
5995.47          132.557
5996.47         131.9977
5997.47         133.2137
5998.47         133.7759
5999.47         133.9935
6000.47         135.0248
6001.47          136.977
6002.47         138.0348
6003.47         135.9659
6004.47         132.7099
6005.47         131.4153
6006.47         132.3346
6007.47         133.4626
6008.47         131.7987
6009.47         128.7383
6010.47         131.6201
6011.47         135.3149
6012.47         134.2177
6013.47         133.4123
6014.47         136.7613
6015.47         138.1791
6016.47         133.9793
6017.47         134.9705
6018.47         137.5734
6019.47         136.0064
6020.47         134.8357
6021.47         135.8506
6022.47         137.6672
6023.47         137.8207
6024.47         135.2231
6025.47         131.6855
6026.47         131.2803
6027.47          136.081
6028.47         139.9636
6029.47         140.0468
6030.47         139.0476
6031.47         138.5977
6032.47         139.5997
6033.47         141.2711
6034.47         141.6529
6035.47         139.9623
6036.47         138.2637
6037.47         138.9944
6038.47         140.9492
6039.47         140.6068
6040.47         136.4293
6041.47         131.7157
6042.47         132.2151
6043.47         136.5074
6044.47         139.1803
6045.47         139.7247
6046.47         139.4367
6047.47         138.3361
6048.47         136.2399
6049.47         137.2349
6050.47         139.8187
6051.47          139.349
6052.47         137.0041
6053.47          135.007
6054.47         135.3027
6055.47         138.0169
6056.47         138.6282
6057.47         137.5362
6058.47         138.5532
6059.47         140.2174
6060.47         139.3155
6061.47         136.3044
6062.47          134.519
6063.47         133.0794
6064.47         132.6984
6065.47         135.6899
6066.47         140.6353
6067.47           141.97
6068.47         139.7797
6069.47         140.3075
6070.47         142.1647
6071.47         142.4548
6072.47         140.8229
6073.47         138.7787
6074.47          138.816
6075.47         140.2574
6076.47         139.6065
6077.47         137.5169
6078.47         135.8842
6079.47          135.455
6080.47         135.9589
6081.47         136.1829
6082.47         136.6593
6083.47         138.7849
6084.47         139.2792
6085.47         137.0855
6086.47         135.6148
6087.47         137.7144
6088.47         138.9168
6089.47         136.3968
6090.47          134.148
6091.47         135.1704
6092.47         137.6518
6093.47         138.8535
6094.47         140.4514
6095.47         141.5217
6096.47         139.8202
6097.47         136.4614
6098.47         137.7544
6099.47         140.9224
6100.47         139.7406
6101.47         138.1397
6102.47         137.5734
6103.47         137.4335
6104.47         138.2622
6105.47         140.0671
6106.47         140.6505
6107.47         138.9301
6108.47         137.9999
6109.47         137.8194
6110.47         138.0399
6111.47         139.6118
6112.47         140.2438
6113.47         140.2111
6114.47         141.1447
6115.47         141.3149
6116.47         138.8384
6117.47         135.8533
6118.47         136.1274
6119.47         135.8861
6120.47         133.2444
6121.47          131.707
6122.47         134.1772
6123.47         135.3055
6124.47         134.7432
6125.47         138.3883
6126.47         139.1934
6127.47          136.089
6128.47         135.2635
6129.47         137.1323
6130.47         138.9952
6131.47         139.7643
6132.47         140.2672
6133.47         138.2963
6134.47         134.8063
6135.47         132.4317
6136.47         130.8441
6137.47         132.2852
6138.47          136.314
6139.47         137.8412
6140.47         135.2072
6141.47         133.7913
6142.47         136.7207
6143.47          137.379
6144.47         136.0509
6145.47         135.9176
6146.47         136.4118
6147.47         135.4744
6148.47         132.7124
6149.47         129.9695
6150.47         129.3059
6151.47         132.0658
6152.47         136.4468
6153.47         138.3509
6154.47         136.6911
6155.47         133.9659
6156.47         132.8396
6157.47         132.6444
6158.47         132.9126
6159.47         132.4685
6160.47         129.9036
6161.47          127.231
6162.47         126.6859
6163.47         128.3525
6164.47         130.4084
6165.47         132.4443
6166.47         132.4814
6167.47         128.7393
6168.47         127.3758
6169.47         127.7085
6170.47         125.7928
6171.47         125.5259
6172.47         127.9468
6173.47         130.8646
6174.47         132.1502
6175.47         131.6348
6176.47         130.3843
6177.47         129.8435
6178.47         131.0694
6179.47         132.6275
6180.47         132.8421
6181.47          131.438
6182.47         128.7586
6183.47         129.4284
6184.47         133.7106
6185.47         132.0024
6186.47         126.9978
6187.47         125.2347
6188.47         126.7619
6189.47         128.9372
6190.47         129.7623
6191.47         129.4257
6192.47         129.4014
6193.47         129.6009
6194.47         129.5296
6195.47         129.5524
6196.47         129.8281
6197.47         129.1021
6198.47         127.5782
6199.47         128.3256
6200.47         127.9331
6201.47         126.3729
6202.47          128.701
6203.47         130.0827
6204.47          129.297
6205.47         129.3602
6206.47         129.7483
6207.47         130.9979
6208.47         132.7868
6209.47         132.8598
6210.47         130.6142
6211.47         128.2721
6212.47         127.6092
6213.47         127.2164
6214.47         126.9075
6215.47         128.2415
6216.47          131.727
6217.47         133.6026
6218.47         132.8781
6219.47         132.1434
6220.47         132.5818
6221.47         132.3876
6222.47         130.2716
6223.47         128.0881
6224.47          129.312
6225.47         131.8438
6226.47         131.5279
6227.47          129.784
6228.47         129.3553
6229.47          129.864
6230.47         129.1478
6231.47         129.4228
6232.47         131.6649
6233.47         133.7037
6234.47         132.9505
6235.47          130.282
6236.47         128.9844
6237.47         130.8373
6238.47         133.1789
6239.47         133.4191
6240.47         131.9647
6241.47         130.9752
6242.47         130.3384
6243.47          128.494
6244.47         125.7448
6245.47         126.2815
6246.47         128.5458
6247.47         128.6253
6248.47         128.7316
6249.47         129.9617
6250.47         131.0766
6251.47         131.0569
6252.47         131.4487
6253.47          131.006
6254.47         128.4937
6255.47         127.5316
6256.47         128.9821
6257.47         130.2215
6258.47          128.905
6259.47         126.3425
6260.47         126.5875
6261.47         130.3785
6262.47          132.141
6263.47           132.02
6264.47         131.9062
6265.47         131.3321
6266.47         131.2758
6267.47         132.5445
6268.47         133.2007
6269.47         129.8802
6270.47         128.4864
6271.47          131.173
6272.47         131.6359
6273.47         130.5397
6274.47         128.8682
6275.47         127.0432
6276.47         126.9867
6277.47         125.4331
6278.47         121.2637
6279.47         117.3333
6280.47         111.8566
6281.47         108.6826
6282.47         111.1803
6283.47           112.93
6284.47         114.5705
6285.47         118.0526
6286.47         121.8253
6287.47         126.8871
6288.47         130.2766
6289.47         129.5426
6290.47         129.6088
6291.47         132.7132
6292.47         136.8422
6293.47          139.577
6294.47         141.7491
6295.47         143.8591
6296.47         146.7482
6297.47         152.7597
6298.47          158.499
6299.47         158.1452
6300.47         150.4324
6301.47         141.3748
6302.47          135.855
6303.47         133.8917
6304.47         133.1501
6305.47         132.2805
6306.47         131.2738
6307.47         130.3428
6308.47         129.0097
6309.47         129.4433
6310.47         132.5574
6311.47         134.0861
6312.47         132.4224
6313.47         129.2501
6314.47         126.9758
6315.47          126.598
6316.47         126.6977
6317.47         126.5146
6318.47          128.083
6319.47         129.6824
6320.47         130.0786
6321.47         130.6167
6322.47         130.6424
6323.47         131.0372
6324.47          132.741
6325.47         134.0378
6326.47         135.0725
6327.47         135.9218
6328.47         135.8531
6329.47         136.1474
6330.47         137.2203
6331.47         137.9734
6332.47         137.4828
6333.47         136.9472
6334.47         135.7129
6335.47         132.1131
6336.47         130.3479
6337.47          132.675
6338.47         135.9281
6339.47         135.6304
6340.47         133.2048
6341.47         132.0297
6342.47         132.5033
6343.47          131.935
6344.47         130.8357
6345.47         131.3945
6346.47         132.6265
6347.47         134.1465
6348.47         135.0206
6349.47         133.9981
6350.47         132.5501
6351.47         132.5997
6352.47          133.631
6353.47         132.7858
6354.47         131.1721
6355.47         131.2825
6356.47         132.5321
6357.47         131.3146
6358.47         128.9109
6359.47         129.4057
6360.47         133.0334
6361.47         135.9895
6362.47         137.4297
6363.47         139.1747
6364.47         136.9842
6365.47         133.8641
6366.47         135.4361
6367.47         138.9477
6368.47         139.4655
6369.47         137.2444
6370.47         136.6403
6371.47         136.4851
6372.47         135.7014
6373.47         134.4907
6374.47         132.8904
6375.47           134.58
6376.47         138.1293
6377.47         137.9277
6378.47         136.9701
6379.47          136.804
6380.47         135.5822
6381.47         133.4085
6382.47         134.1009
6383.47         138.5212
6384.47         142.2051
6385.47         141.2166
6386.47         137.8511
6387.47         136.4975
6388.47         136.8942
6389.47         136.5252
6390.47         135.4624
6391.47         136.0329
6392.47         136.9369
6393.47         137.6633
6394.47         138.5624
6395.47         138.9534
6396.47         140.0612
6397.47         141.0967
6398.47         138.7467
6399.47          133.361
6400.47         129.6405
6401.47          131.221
6402.47         136.1103
6403.47          139.935
6404.47         140.2702
6405.47         138.2718
6406.47          136.749
6407.47         136.4875
6408.47         136.6735
6409.47         137.1541
6410.47         136.6059
6411.47         136.5765
6412.47         138.9324
6413.47          137.841
6414.47         134.3232
6415.47         134.0101
6416.47         136.4661
6417.47         137.7463
6418.47          137.321
6419.47         137.9525
6420.47         138.0289
6421.47         137.1122
6422.47         136.3426
6423.47         135.9442
6424.47         136.8253
6425.47         139.1989
6426.47         141.1275
6427.47         139.6837
6428.47          136.705
6429.47         135.6378
6430.47         135.9651
6431.47         135.3538
6432.47         134.3166
6433.47         135.7711
6434.47         138.7157
6435.47         140.6377
6436.47         139.6125
6437.47         135.6322
6438.47         132.3729
6439.47         133.4566
6440.47         138.0315
6441.47         139.6066
6442.47          137.566
6443.47         136.6136
6444.47         138.4935
6445.47         141.2302
6446.47         140.2672
6447.47         134.2507
6448.47         130.3953
6449.47         129.8266
6450.47           130.11
6451.47         133.0296
6452.47         136.0813
6453.47         136.0754
6454.47         133.8967
6455.47         133.3375
6456.47         134.7518
6457.47         135.8375
6458.47         135.8051
6459.47         135.9055
6460.47         136.7717
6461.47         137.0989
6462.47         135.8372
6463.47         135.1889
6464.47         136.8095
6465.47         138.3624
6466.47         139.2119
6467.47         139.4634
6468.47         139.0527
6469.47         138.8862
6470.47         137.5266
6471.47         134.8702
6472.47         134.9337
6473.47         136.8077
6474.47         137.6738
6475.47         137.1387
6476.47         137.1219
6477.47         138.3717
6478.47         139.0524
6479.47         137.2072
6480.47         136.5767
6481.47         137.4192
6482.47         135.7537
6483.47         134.4614
6484.47         135.8279
6485.47          137.652
6486.47         136.2093
6487.47         134.7363
6488.47          134.815
6489.47          133.334
6490.47         131.2661
6491.47         130.2656
6492.47         129.8569
6493.47         128.2323
6494.47          126.389
6495.47         126.1891
6496.47         127.7753
6497.47         129.4099
6498.47         130.2014
6499.47         131.5474
6500.47         134.8921
6501.47          136.282
6502.47           134.61
6503.47         134.2607
6504.47         137.4535
6505.47         139.4305
6506.47          137.412
6507.47         137.3915
6508.47         137.2754
6509.47         135.9421
6510.47         136.7409
6511.47         137.5379
6512.47         137.3378
6513.47         137.0533
6514.47         136.5586
6515.47         134.9076
6516.47         133.1815
6517.47         133.5437
6518.47         134.8144
6519.47         136.9198
6520.47         138.6415
6521.47          136.175
6522.47         133.7053
6523.47         134.7976
6524.47         136.6584
6525.47         136.2792
6526.47         135.2732
6527.47         136.4576
6528.47         138.6626
6529.47         138.5971
6530.47         136.4807
6531.47         134.8314
6532.47           131.61
6533.47         130.0025
6534.47         132.2329
6535.47         132.7653
6536.47         134.0201
6537.47         137.4345
6538.47         140.1594
6539.47         143.7295
6540.47         145.6387
6541.47         144.7133
6542.47         149.0022
6543.47         165.7163
6544.47         201.2363
6545.47         250.8449
6546.47         286.3995
6547.47         298.7973
6548.47         287.7376
6549.47         244.8679
6550.47         196.2081
6551.47         165.4761
6552.47         150.0308
6553.47         144.0876
6554.47         144.0612
6555.47         151.2348
6556.47         174.5073
6557.47         236.5342
6558.47         363.0707
6559.47         551.5424
6560.47         740.3516
6561.47         859.7424
6562.47         869.3217
6563.47         764.1245
6564.47         562.4241
6565.47         348.6051
6566.47         222.1764
6567.47         169.9404
6568.47         151.2897
6569.47         143.6196
6570.47         139.9965
6571.47         136.2131
6572.47         134.5658
6573.47         140.3412
6574.47         149.0084
6575.47         159.1337
6576.47         171.5597
6577.47         188.3272
6578.47         228.4848
6579.47         309.4506
6580.47           422.21
6581.47         527.8853
6582.47         585.7103
6583.47          571.603
6584.47         485.0875
6585.47         354.3594
6586.47         237.1178
6587.47         179.1737
6588.47         158.1134
6589.47         148.0137
6590.47         142.1629
6591.47         137.9178
6592.47         135.2243
6593.47         133.9787
6594.47         133.7404
6595.47         135.0373
6596.47         136.5647
6597.47         137.3105
6598.47         138.6432
6599.47         139.5525
6600.47         140.5305
6601.47         142.5792
6602.47         141.4097
6603.47         137.1349
6604.47         134.2069
6605.47          134.664
6606.47         134.7198
6607.47         133.7356
6608.47         135.4223
6609.47         138.6586
6610.47         138.9995
6611.47         135.7308
6612.47         134.7947
6613.47         138.3471
6614.47         142.7401
6615.47         143.1732
6616.47         140.2919
6617.47         137.7148
6618.47          138.401
6619.47         142.0153
6620.47         142.7571
6621.47         139.1259
6622.47         136.0419
6623.47         135.4675
6624.47         137.3077
6625.47          140.012
6626.47         141.7504
6627.47         143.3353
6628.47         143.3926
6629.47         140.2482
6630.47         139.0196
6631.47         138.7445
6632.47         136.1586
6633.47          134.552
6634.47         136.9231
6635.47         139.9637
6636.47         139.0196
6637.47         138.1933
6638.47         139.7799
6639.47         141.3352
6640.47         139.9547
6641.47         138.0805
6642.47          138.523
6643.47         139.9762
6644.47         139.2881
6645.47         138.9227
6646.47         141.0955
6647.47         141.9492
6648.47         141.2265
6649.47         138.8916
6650.47         135.0965
6651.47         134.6319
6652.47         138.1957
6653.47         141.1703
6654.47         139.9454
6655.47         139.6397
6656.47         141.4516
6657.47         140.5434
6658.47         138.3194
6659.47          136.665
6660.47         136.2681
6661.47         137.3137
6662.47         137.7445
6663.47         136.7917
6664.47         136.1626
6665.47         137.4292
6666.47         138.7131
6667.47         138.2576
6668.47         138.3753
6669.47         140.9861
6670.47         142.9003
6671.47         140.7867
6672.47         140.0241
6673.47         142.0327
6674.47         144.0874
6675.47         145.0663
6676.47         145.3916
6677.47         145.3017
6678.47         144.1035
6679.47         141.5436
6680.47         139.7591
6681.47         139.7704
6682.47          139.382
6683.47         138.9273
6684.47         138.5888
6685.47         137.6222
6686.47          137.396
6687.47         139.8694
6688.47         143.4982
6689.47         144.0013
6690.47         143.8557
6691.47         143.7719
6692.47         141.4778
6693.47         139.9901
6694.47         139.9938
6695.47         139.5648
6696.47          138.086
6697.47         136.1889
6698.47         136.0347
6699.47         138.6527
6700.47         140.9059
6701.47         142.3076
6702.47         143.0802
6703.47         141.7381
6704.47         141.7035
6705.47         143.0464
6706.47         142.3348
6707.47         142.0402
6708.47         144.8445
6709.47         149.3581
6710.47         152.5819
6711.47          160.431
6712.47          180.859
6713.47         211.4635
6714.47         236.1001
6715.47         250.2791
6716.47          250.983
6717.47         227.6762
6718.47         194.5819
6719.47         168.9248
6720.47          154.457
6721.47         147.8726
6722.47         146.4841
6723.47         149.1091
6724.47         153.6249
6725.47         158.1613
6726.47         173.0447
6727.47         210.4296
6728.47         257.8463
6729.47         283.4324
6730.47         271.6561
6731.47         243.0655
6732.47         210.0894
6733.47         180.0255
6734.47         159.8976
6735.47         149.0396
6736.47         143.2263
6737.47         139.9725
6738.47         139.8478
6739.47          140.405
6740.47         139.8462
6741.47         138.4059
6742.47         135.5945
6743.47         134.1398
6744.47         136.1514
6745.47         139.3035
6746.47         141.2128
6747.47          141.426
6748.47         140.8317
6749.47         139.6078
6750.47         138.5007
6751.47         138.4303
6752.47         139.1939
6753.47         138.9007
6754.47          137.728
6755.47         138.4108
6756.47         142.2142
6757.47         144.4888
6758.47         143.2018
6759.47          143.983
6760.47          145.028
6761.47         144.8187
6762.47         144.9177
6763.47         143.5187
6764.47         142.0674
6765.47         141.8418
6766.47         140.6214
6767.47         140.7217
6768.47         141.9139
6769.47         140.7243
6770.47         138.2579
6771.47         137.9976
6772.47         140.9471
6773.47         143.7549
6774.47         143.4873
6775.47         141.5029
6776.47         142.4204
6777.47         147.6364
6778.47         149.5334
6779.47         144.8115
6780.47          141.693
6781.47         141.6981
6782.47         142.0072
6783.47         141.4139
6784.47         141.7675
6785.47          141.124
6786.47         138.3283
6787.47         137.2735
6788.47         137.8003
6789.47         140.1126
6790.47         144.1854
6791.47         144.2925
6792.47         140.4732
6793.47         137.3068
6794.47         137.0556
6795.47         139.2555
6796.47         141.4339
6797.47         141.4738
6798.47         139.5839
6799.47         137.7318
6800.47          137.506
6801.47         138.8469
6802.47         141.5043
6803.47         143.6938
6804.47         143.7662
